2016/06/02	13:49
Amplitude: 5.00 V
Freq  (Hz) 	 Gain (dB)  	 Phase (deg)
 10.058             -2.133             -0.546
 10.990             -2.134             -0.598
 12.107             -2.134             -0.659
 13.225             -2.134             -0.721
 14.529             -2.135             -0.792
 15.832             -2.136             -0.864
 17.323             -2.136             -0.943
 18.999             -2.137             -1.036
 20.862             -2.137             -1.136
 22.911             -2.138             -1.248
 25.146             -2.139             -1.374
 27.567             -2.139             -1.507
 30.175             -2.140             -1.646
 33.155             -2.141             -1.808
 36.322             -2.142             -1.980
 39.861             -2.143             -2.178
 43.586             -2.144             -2.382
 47.870             -2.145             -2.617
 52.527             -2.146             -2.873
 57.556             -2.147             -3.152
 63.144             -2.148             -3.460
 69.104             -2.150             -3.791
 75.810             -2.151             -4.162
 83.260             -2.152             -4.577
 91.270             -2.153             -5.022
100.024             -2.155             -5.510
109.710             -2.156             -6.053
120.141             -2.156             -6.638
131.875             -2.156             -7.299
144.541             -2.156             -8.012
158.511             -2.152             -8.791
173.785             -2.147             -9.647
190.549             -2.141            -10.585
208.989             -2.134            -11.624
229.105             -2.125            -12.760
251.271             -2.114            -14.018
275.485             -2.101            -15.400
301.935             -2.086            -16.917
331.178             -2.067            -18.610
363.030             -2.044            -20.470
398.047             -2.018            -22.535
436.604             -1.987            -24.842
478.700             -1.951            -27.398
524.893             -1.909            -30.251
575.371             -1.862            -33.437
630.878             -1.809            -37.028
691.786             -1.751            -41.086
758.655             -1.691            -45.693
831.671             -1.633            -50.915
911.951             -1.586            -56.909
1000.054             -1.565            -63.787
1096.539             -1.593            -71.691
1202.337             -1.706            -80.723
1318.194             -1.953            -90.919
1445.413             -2.393            -102.185
1584.925             -3.080            -114.147
1737.848             -4.031            -126.228
1905.486             -5.219            -137.839
2089.329             -6.583            -148.624
2290.867             -8.065            -158.472
2511.963             -9.623            -167.468
2754.293            -11.234            -175.728
3019.907            -12.884            176.626
3311.224            -14.573            169.482
3630.854            -16.279            162.821
3981.031            -17.997            156.585
4365.109            -19.719            150.732
4786.253            -21.442            145.192
5248.003            -23.140            140.020
5754.456            -24.811            135.152
6309.524            -26.447            130.561
6918.237            -28.039            126.221
7585.809            -29.580            122.100
8317.642            -31.064            118.173
9120.069            -32.488            114.410
9999.983            -33.847            110.790
10964.833            -35.716             90.981
12022.629            -36.507             85.060
13182.499            -37.382             79.187
14454.313            -38.233             73.322
15848.875            -38.977             67.564
17377.920            -39.620             62.004
19054.674            -40.169             56.654
20892.918            -40.634             51.573
22908.673            -41.025             46.755
25118.887            -41.353             42.261
27542.375            -41.629             38.024
30199.438            -41.859             34.067
33113.174            -42.054             30.385
36307.797            -42.221             26.943
39810.687            -42.363             23.720
43651.648            -42.488             20.692
47863.089            -42.597             17.837
52480.772            -42.699             15.136
57544.000            -42.795             12.575
63095.801            -42.886             10.104
69183.111            -42.984              7.746
75857.714            -43.089              5.438
83176.419            -43.207              3.183
91201.067            -43.343              0.952
100000.016            -43.581             -3.584
109647.773            -43.688             -3.458
120226.480            -43.918             -5.674
131825.730            -44.201             -7.840
144544.058            -44.542             -9.918
158489.309            -44.952            -11.761
173780.136            -45.417            -12.185
190545.991            -46.065            -19.884
