 19.930              8.396            -105.519
 22.352              9.314            -107.281
 25.146             10.244            -109.253
 28.312             11.152            -112.445
 31.665             11.966            -113.678
 35.577             12.806            -116.684
 39.861             13.596            -119.172
 44.703             14.321            -121.510
 50.291             15.050            -124.893
 56.438             15.692            -127.934
 63.330             16.267            -131.433
 70.967             16.807            -134.365
 79.535             17.273            -137.892
 89.407             17.693            -141.174
100.210             18.069            -144.115
112.504             18.360            -147.510
126.101             18.668            -150.231
141.561             18.853            -152.959
158.884             19.057            -155.773
178.255             19.199            -158.066
200.048             19.335            -160.442
224.449             19.442            -162.181
251.830             19.539            -164.167
282.563             19.618            -165.999
317.022             19.658            -167.171
355.579             19.709            -168.974
398.979             19.738            -170.244
447.780             19.748            -171.191
502.355             19.792            -172.266
563.636             19.809            -173.368
632.368             19.812            -174.201
709.668             19.824            -174.905
796.281             19.839            -175.394
893.325             19.863            -175.863
1002.289             19.849            -176.586
1124.665             19.895            -176.850
1261.942             19.844            -177.840
1415.983             19.870            -178.301
1588.650             19.876            -178.624
1782.551             19.874            180.361
1999.922             19.886            180.553
2244.115             19.867            179.988
2517.924             19.853            179.582
2825.074             19.875            178.896
3169.850             19.895            178.313
3556.535             19.853            178.048
3990.531             19.868            177.628
4477.426             19.853            176.284
5023.740             19.871            176.571
5636.737             19.856            175.859
6324.612             19.852            175.294
7096.305             19.841            174.421
7962.063             19.829            173.467
8933.619             19.834            172.699
10023.825             19.796            171.960
11246.838             19.783            170.903
12619.235             19.740            169.700
14158.897             19.725            168.300
15886.500             19.633            166.908
17824.955             19.611            165.002
19999.966             19.539            163.414
22440.404             19.459            161.187
25178.492             19.348            159.438
28250.739             19.217            156.876
31697.936             19.055            154.530
35565.533             18.877            151.719
39905.310             18.659            148.767
44774.450             18.385            145.463
50237.775             18.050            142.463
56367.740             17.682            138.933
63245.557             17.219            135.055
70962.682             16.736            131.785
79621.375             16.214            126.249
89336.745             15.598            122.366
100237.504             14.944            118.950
112468.190             14.229            115.045
126191.415             13.477            110.894
141589.157             12.686            107.907
158865.564             11.851            104.048
178250.112             10.975            100.895
200000.033             10.095             93.862
2016/05/30	15:42
Amplitude: 0.01 V
Freq  (Hz) 	 Gain (dB)  	 Phase (deg)
 19.930            -11.614            -105.663
 22.352            -10.741            -107.884
 25.146             -9.803            -108.891
 28.312             -8.906            -111.802
 31.665             -8.075            -113.044
 35.577             -7.249            -116.079
 39.861             -6.404            -118.489
 44.703             -5.722            -120.635
 50.291             -4.979            -124.381
 56.438             -4.313            -127.476
 63.330             -3.727            -131.179
 70.967             -3.186            -134.088
 79.535             -2.716            -137.457
 89.407             -2.247            -140.495
100.210             -1.888            -144.103
112.504             -1.550            -146.318
126.101             -1.243            -149.630
141.561             -1.032            -152.470
158.884             -0.779            -155.652
178.255             -0.641            -157.631
200.048             -0.480            -160.285
224.449             -0.406            -162.152
251.830             -0.337            -163.554
282.563             -0.212            -166.184
317.022             -0.183            -167.020
355.579             -0.120            -168.410
398.979             -0.056            -169.755
447.780             -0.041            -170.530
502.355             -0.029            -171.490
563.636             -0.030            -172.282
632.368             -0.007            -173.637
709.668             -0.009            -173.999
796.281              0.048            -174.706
893.325              0.012            -175.598
1002.289              0.029            -176.315
1124.665              0.019            -176.042
1261.942              0.033            -177.026
1415.983              0.046            -177.378
1588.650              0.050            -177.713
1782.551              0.063            -178.466
1999.922              0.072            -177.833
2244.115              0.060            -178.740
2517.924              0.035            -178.493
2825.074              0.075            180.967
3169.850              0.059            -178.829
3556.535              0.054            180.625
3990.531              0.072            180.757
4477.426              0.084            179.973
5023.740              0.062            179.717
5636.737              0.082            179.650
6324.612              0.075            179.732
7096.305              0.086            179.335
7962.063              0.058            178.897
8933.619              0.089            179.144
10023.825              0.065            178.936
11246.838              0.068            178.403
12619.235              0.052            178.500
14158.897              0.068            178.225
15886.500              0.066            177.552
17824.955              0.043            177.341
19999.966              0.040            177.178
22440.404              0.028            176.658
25178.492              0.040            175.860
28250.739              0.030            175.117
31697.936              0.052            175.112
35565.533              0.065            174.550
39905.310              0.046            173.840
44774.450              0.063            172.710
50237.775              0.023            171.984
56367.740             -0.008            170.908
63245.557             -0.019            169.592
70962.682             -0.009            168.510
79621.375             -0.046            167.001
89336.745             -0.057            165.537
100237.504             -0.084            163.851
112468.190             -0.155            162.158
126191.415             -0.192            159.856
141589.157             -0.245            157.460
158865.564             -0.337            154.416
178250.112             -0.418            151.503
200000.033             -0.535            146.638
