2016/05/30	15:47
Amplitude: 0.01 V
Freq  (Hz) 	 Gain (dB)  	 Phase (deg)
 19.930            -11.519            -106.296
 22.352            -10.620            -107.370
 25.146             -9.686            -109.388
 28.312             -8.807            -111.846
 31.665             -7.963            -114.249
 35.577             -7.154            -116.431
 39.861             -6.366            -119.262
 44.703             -5.620            -122.054
 50.291             -4.942            -125.502
 56.438             -4.295            -128.191
 63.330             -3.693            -131.630
 70.967             -3.182            -135.202
 79.535             -2.673            -137.942
 89.407             -2.253            -141.502
100.210             -1.884            -145.058
112.504             -1.546            -148.040
126.101             -1.303            -151.145
141.561             -1.061            -153.957
158.884             -0.884            -156.242
178.255             -0.705            -158.936
200.048             -0.566            -161.400
224.449             -0.466            -163.937
251.830             -0.397            -165.701
282.563             -0.323            -167.494
317.022             -0.261            -169.410
355.579             -0.208            -170.886
398.979             -0.191            -172.487
447.780             -0.155            -173.926
502.355             -0.149            -175.505
563.636             -0.134            -176.713
632.368             -0.105            -178.170
709.668             -0.095            -179.399
796.281             -0.099            179.500
893.325             -0.125            178.459
1002.289             -0.110            176.917
1124.665             -0.121            175.572
1261.942             -0.157            174.530
1415.983             -0.182            173.106
1588.650             -0.198            171.877
1782.551             -0.234            169.793
1999.922             -0.274            168.492
2244.115             -0.345            166.452
2517.924             -0.417            164.483
2825.074             -0.537            162.459
3169.850             -0.646            159.810
3556.535             -0.782            157.544
3990.531             -0.944            154.827
4477.426             -1.188            151.674
5023.740             -1.435            148.945
5636.737             -1.728            145.861
6324.612             -2.056            142.717
7096.305             -2.443            139.151
7962.063             -2.919            136.180
8933.619             -3.423            132.399
10023.825             -4.003            128.716
11246.838             -4.622            125.726
12619.235             -5.286            122.305
14158.897             -6.013            119.396
15886.500             -6.771            116.412
17824.955             -7.580            113.845
19999.966             -8.430            111.237
22440.404             -9.305            108.408
25178.492            -10.215            106.374
28250.739            -11.098            104.216
31697.936            -12.016            102.507
35565.533            -12.951            100.460
39905.310            -13.902             98.643
44774.450            -14.855             97.447
50237.775            -15.814             95.528
56367.740            -16.809             94.169
63245.557            -17.790             92.366
70962.682            -18.758             91.310
79621.375            -19.764             90.101
89336.745            -20.723             88.895
100237.504            -21.670             87.523
112468.190            -22.689             86.024
126191.415            -23.689             84.559
141589.157            -24.617             83.553
158865.564            -25.591             81.086
178250.112            -26.524             80.046
200000.033            -26.922             76.308
